> ScS at  1174.12 seconds at   70.000 degrees for a    500.0 km deep source in the prem model with rayParam    7.932 s/deg.
   0.000    5871.0
   0.062    5856.8
   0.114    5845.0
   0.119    5843.8
   0.138    5839.5
   0.139    5839.3
   0.140    5839.1
   0.142    5838.7
   0.145    5837.9
   0.153    5836.2
   0.155    5835.8
   0.156    5835.4
   0.160    5834.7
   0.167    5833.1
   0.221    5821.0
   0.261    5812.3
   0.326    5798.2
   0.353    5792.5
   0.393    5783.9
   0.414    5779.5
   0.418    5778.7
   0.455    5771.0
   0.473    5767.2
   0.504    5760.6
   0.540    5753.4
   0.624    5736.0
   0.632    5734.3
   0.641    5732.6
   0.649    5730.9
   0.722    5716.0
   0.797    5701.0
   0.822    5696.3
   0.848    5691.6
   0.900    5682.1
   0.988    5666.2
   1.010    5662.4
   1.011    5662.1
   1.013    5661.9
   1.016    5661.3
   1.022    5660.2
   1.022    5660.1
   1.026    5659.5
   1.029    5658.9
   1.037    5657.6
   1.051    5655.1
   1.080    5650.0
   1.199    5629.3
   1.285    5614.7
   1.373    5600.0
   1.399    5595.6
   1.426    5591.1
   1.480    5582.2
   1.589    5564.3
   1.688    5548.3
   1.737    5540.3
   1.787    5532.3
   1.889    5516.2
   1.940    5508.1
   1.991    5500.0
   2.104    5482.3
   2.162    5473.4
   2.220    5464.5
   2.324    5448.4
   2.377    5440.4
   2.430    5432.4
   2.538    5416.2
   2.592    5408.1
   2.647    5400.0
   2.766    5382.3
   2.888    5364.6
   3.112    5332.4
   3.124    5330.7
   3.342    5300.0
   3.569    5268.6
   3.802    5237.0
   4.080    5200.0
   4.225    5181.1
   4.372    5162.2
   4.672    5124.1
   4.676    5123.5
   4.681    5123.0
   4.690    5121.8
   4.699    5120.7
   4.708    5119.5
   4.720    5118.1
   4.732    5116.6
   4.743    5115.2
   4.755    5113.7
   4.779    5110.8
   4.802    5107.9
   4.834    5103.9
   4.866    5100.0
   4.867    5099.8
   4.885    5097.6
   4.906    5095.0
   4.927    5092.5
   4.969    5087.3
   5.011    5082.2
   5.053    5077.0
   5.096    5071.9
   5.138    5066.7
   5.143    5066.1
   5.147    5065.6
   5.156    5064.5
   5.166    5063.4
   5.175    5062.2
   5.194    5060.0
   5.212    5057.8
   5.249    5053.3
   5.287    5048.8
   5.362    5039.8
   5.438    5030.8
   5.569    5015.4
   5.635    5007.7
   5.702    5000.0
   5.837    4984.4
   5.975    4968.7
   6.255    4937.2
   6.423    4918.6
   6.593    4900.0
   6.946    4862.2
   7.309    4824.2
   7.339    4821.2
   7.368    4818.2
   7.427    4812.1
   7.546    4800.0
   7.579    4796.6
   7.613    4793.3
   7.763    4778.2
   7.838    4770.7
   7.914    4763.1
   8.090    4745.9
   8.268    4728.6
   8.541    4702.4
   8.554    4701.2
   8.567    4700.0
   8.876    4671.0
   9.193    4642.0
   9.409    4622.6
   9.663    4600.0
   9.869    4582.0
   9.898    4579.5
   9.928    4576.9
   9.987    4571.8
  10.106    4561.6
  10.347    4541.2
  10.368    4539.5
  10.388    4537.8
  10.614    4518.9
  10.845    4500.0
  10.878    4497.3
  10.912    4494.6
  11.183    4472.8
  11.459    4450.9
  12.030    4407.0
  12.123    4400.0
  12.313    4385.8
  12.506    4371.5
  13.000    4335.8
  13.511    4300.0
  14.213    4252.5
  14.544    4230.9
  14.784    4215.5
  15.028    4200.0
  15.529    4168.9
  16.048    4137.7
  16.071    4136.3
  16.380    4118.2
  16.696    4100.0
  17.348    4063.5
  18.030    4026.8
  18.157    4020.1
  18.286    4013.4
  18.546    4000.0
  18.642    3995.1
  18.737    3990.3
  19.100    3972.1
  19.471    3954.0
  19.518    3951.7
  19.565    3949.4
  19.661    3944.8
  19.896    3933.6
  20.134    3922.4
  20.376    3911.2
  20.622    3900.0
  21.126    3877.5
  21.646    3855.0
  22.194    3832.3
  22.742    3809.7
  22.864    3804.9
  22.987    3800.0
  23.387    3784.4
  23.797    3768.8
  24.653    3737.5
  25.197    3718.8
  25.741    3700.0
  26.721    3668.3
  27.343    3649.2
  27.991    3630.0
  28.517    3615.0
  28.786    3607.5
  29.059    3600.0
  29.930    3576.8
  30.382    3565.2
  30.847    3553.6
  31.407    3540.2
  31.967    3526.8
  32.568    3513.4
  33.168    3500.0
  33.543    3492.0
  34.126    3480.0
  34.709    3492.0
  35.084    3500.0
  35.685    3513.4
  36.285    3526.8
  36.845    3540.2
  37.405    3553.6
  37.870    3565.2
  38.322    3576.8
  39.193    3600.0
  39.466    3607.5
  39.735    3615.0
  40.261    3630.0
  40.909    3649.2
  41.531    3668.3
  42.511    3700.0
  43.055    3718.8
  43.599    3737.5
  44.455    3768.8
  44.865    3784.4
  45.265    3800.0
  45.388    3804.9
  45.510    3809.7
  46.058    3832.3
  46.606    3855.0
  47.126    3877.5
  47.630    3900.0
  47.876    3911.2
  48.118    3922.4
  48.356    3933.6
  48.591    3944.8
  48.687    3949.4
  48.734    3951.7
  48.781    3954.0
  49.152    3972.1
  49.515    3990.3
  49.611    3995.1
  49.706    4000.0
  49.966    4013.4
  50.095    4020.1
  50.222    4026.8
  50.904    4063.5
  51.556    4100.0
  51.872    4118.2
  52.181    4136.3
  52.204    4137.7
  52.723    4168.9
  53.224    4200.0
  53.468    4215.5
  53.708    4230.9
  54.039    4252.5
  54.741    4300.0
  55.252    4335.8
  55.746    4371.5
  55.939    4385.8
  56.129    4400.0
  56.222    4407.0
  56.793    4450.9
  57.069    4472.8
  57.340    4494.6
  57.374    4497.3
  57.407    4500.0
  57.638    4518.9
  57.864    4537.8
  57.884    4539.5
  57.905    4541.2
  58.146    4561.6
  58.265    4571.8
  58.324    4576.9
  58.354    4579.5
  58.383    4582.0
  58.589    4600.0
  58.843    4622.6
  59.059    4642.0
  59.376    4671.0
  59.685    4700.0
  59.698    4701.2
  59.711    4702.4
  59.985    4728.6
  60.162    4745.9
  60.338    4763.1
  60.414    4770.7
  60.489    4778.2
  60.639    4793.3
  60.673    4796.6
  60.706    4800.0
  60.825    4812.1
  60.884    4818.2
  60.914    4821.2
  60.943    4824.2
  61.306    4862.2
  61.659    4900.0
  61.829    4918.6
  61.997    4937.2
  62.277    4968.7
  62.415    4984.4
  62.551    5000.0
  62.617    5007.7
  62.683    5015.4
  62.814    5030.8
  62.890    5039.8
  62.965    5048.8
  63.003    5053.3
  63.040    5057.8
  63.059    5060.0
  63.077    5062.2
  63.086    5063.4
  63.096    5064.5
  63.105    5065.6
  63.109    5066.1
  63.114    5066.7
  63.157    5071.9
  63.199    5077.0
  63.241    5082.2
  63.283    5087.3
  63.325    5092.5
  63.346    5095.0
  63.367    5097.6
  63.385    5099.8
  63.387    5100.0
  63.418    5103.9
  63.450    5107.9
  63.474    5110.8
  63.497    5113.7
  63.509    5115.2
  63.520    5116.6
  63.532    5118.1
  63.544    5119.5
  63.553    5120.7
  63.562    5121.8
  63.571    5123.0
  63.576    5123.5
  63.580    5124.1
  63.880    5162.2
  64.027    5181.1
  64.172    5200.0
  64.450    5237.0
  64.683    5268.6
  64.910    5300.0
  65.128    5330.7
  65.140    5332.4
  65.364    5364.6
  65.486    5382.3
  65.605    5400.0
  65.660    5408.1
  65.714    5416.2
  65.822    5432.4
  65.875    5440.4
  65.928    5448.4
  66.033    5464.5
  66.090    5473.4
  66.148    5482.3
  66.261    5500.0
  66.312    5508.1
  66.363    5516.2
  66.465    5532.3
  66.515    5540.3
  66.564    5548.3
  66.663    5564.3
  66.772    5582.2
  66.826    5591.1
  66.853    5595.6
  66.880    5600.0
  66.967    5614.7
  67.053    5629.3
  67.172    5650.0
  67.201    5655.1
  67.216    5657.6
  67.223    5658.9
  67.226    5659.5
  67.230    5660.1
  67.230    5660.2
  67.236    5661.3
  67.239    5661.9
  67.241    5662.1
  67.242    5662.4
  67.264    5666.2
  67.352    5682.1
  67.404    5691.6
  67.430    5696.3
  67.455    5701.0
  67.530    5716.0
  67.603    5730.9
  67.612    5732.6
  67.620    5734.3
  67.628    5736.0
  67.713    5753.4
  67.748    5760.6
  67.779    5767.2
  67.797    5771.0
  67.834    5778.7
  67.838    5779.5
  67.859    5783.9
  67.899    5792.5
  67.926    5798.2
  67.991    5812.3
  68.031    5821.0
  68.085    5833.1
  68.092    5834.7
  68.096    5835.4
  68.098    5835.8
  68.099    5836.2
  68.107    5837.9
  68.110    5838.7
  68.112    5839.1
  68.113    5839.3
  68.114    5839.5
  68.133    5843.8
  68.138    5845.0
  68.190    5856.8
  68.252    5871.0
  68.296    5881.3
  68.339    5891.4
  68.402    5906.3
  68.462    5921.0
  68.487    5927.1
  68.511    5933.1
  68.559    5945.0
  68.606    5956.7
  68.634    5963.9
  68.662    5971.0
  68.711    5984.1
  68.759    5997.1
  68.794    6006.6
  68.828    6016.0
  68.854    6023.1
  68.909    6038.3
  68.947    6048.8
  68.990    6061.0
  69.030    6072.2
  69.069    6083.3
  69.089    6089.0
  69.109    6094.7
  69.149    6106.0
  69.168    6111.6
  69.188    6117.2
  69.226    6128.3
  69.246    6134.0
  69.265    6139.7
  69.285    6145.3
  69.294    6148.2
  69.304    6151.0
  69.360    6168.5
  69.416    6186.0
  69.472    6203.5
  69.527    6221.0
  69.574    6236.0
  69.606    6246.0
  69.637    6256.0
  69.665    6264.7
  69.692    6273.5
  69.719    6282.2
  69.746    6291.0
  69.777    6301.0
  69.808    6311.0
  69.834    6319.2
  69.846    6323.2
  69.859    6327.3
  69.870    6331.0
  69.882    6334.9
  69.894    6338.8
  69.906    6342.7
  69.912    6344.6
  69.918    6346.6
  69.930    6351.3
  69.937    6353.7
  69.940    6354.8
  69.943    6356.0
  69.959    6363.5
  69.967    6367.2
  69.970    6369.1
  69.972    6370.1
  69.974    6371.0
